Vbe[mV]	Ic[mA]
512	0.02
540	0.03
553	0.06
575	0.14
582	0.18
590	0.25
605	0.41
613	0.66
623	0.79
629	0.97
631	1.02
636	1.24
639	1.41
646	1.78
650	2.03
661	3.01
667	3.76
670	4.01
672	4.46
680	5.96
685	7.45
691	8.87
699	11.28
704	13.57
708	15.08
710	16.69
715	19.43
727	26.9


