Vd [V]	Id[mA]
0.07	0.24
0.17	0.53
0.27	0.83
0.36	1.07
0.47	1.34
0.6	1.63
0.72	1.87
0.82	2.04
0.97	2.26
1.04	2.34
1.12	2.43
1.2	2.5
1.26	2.55
1.38	2.63
1.42	2.65
1.62	2.73
1.84	2.77
2.01	2.79
2.3	2.82
2.69	2.84
3.04	2.86
3.25	2.86
3.7	2.88
3.97	2.88
4.26	2.89
4.96	2.9
5	2.9
5.02	2.9
