Vbe[mV]	Ic[mA]
509	0.01
512	0.01
516	0.01
548	0.04
555	0.05
560	0.06
577	0.12
592	0.21
617	0.53
625	0.7
633	0.9
641	1.2
646	1.44
651	1.69
658	2.18
660	2.37
666	2.92
680	4.8
684	5.68
691	7.3
694	8.09
699	9.42
701	10.09
708	12.2
713	14.52
717	16.1
720	18.24
724	20.8
725	21.8
