Vg	Id[mA]
0	0
1.29	0
1.33	0.01
1.67	0.08
1.8	0.14
1.94	0.22
2.1	0.32
2.24	0.43
2.32	0.5
2.4	0.58
2.49	0.66
2.55	0.72
2.62	0.8
2.73	0.93
2.8	1.01
2.94	1.18
3.05	1.32
3.15	1.47
3.25	1.6
3.37	1.78
3.48	1.95
3.58	2.11
3.7	2.3
3.8	2.47
3.94	2.72
4.05	2.91
4.26	3.3
4.51	3.77
4.73	4.2
4.91	4.58
5.05	4.88
